time,current vsine,voltage 0,voltage wl
0,0,0,0
1e-09,3.49283e-19,0,0.00942476
2e-09,7.01211e-19,0,0.0188494
3e-09,1.05587e-18,0,0.0282739
4e-09,1.41336e-18,0,0.0376981
5e-09,1.77378e-18,0,0.047122
6e-09,2.13722e-18,0,0.0565453
7e-09,2.50378e-18,0,0.0659681
8e-09,2.87358e-18,0,0.0753903
9e-09,3.24672e-18,0,0.0848117
1e-08,3.62331e-18,0,0.0942323
1.1e-08,4.00347e-18,0,0.103652
1.2e-08,4.38732e-18,0,0.113071
1.3e-08,4.77498e-18,0,0.122488
1.4e-08,5.16657e-18,0,0.131904
1.5e-08,5.56223e-18,0,0.141319
1.6e-08,5.96209e-18,0,0.150733
1.7e-08,6.36629e-18,0,0.160145
1.8e-08,6.77496e-18,0,0.169556
1.9e-08,7.18826e-18,0,0.178964
2e-08,7.60632e-18,0,0.188372
2.1e-08,8.0293e-18,0,0.197777
2.2e-08,8.45736e-18,0,0.20718
2.3e-08,8.89065e-18,0,0.216581
2.4e-08,9.32934e-18,0,0.22598
2.5e-08,9.77359e-18,0,0.235377
2.6e-08,1.02236e-17,0,0.244772
2.7e-08,1.06795e-17,0,0.254164
2.8e-08,1.11415e-17,0,0.263554
2.9e-08,1.16097e-17,0,0.272941
3e-08,1.20844e-17,0,0.282325
3.1e-08,1.25657e-17,0,0.291706
3.2e-08,1.30539e-17,0,0.301085
3.3e-08,1.35491e-17,0,0.310461
3.4e-08,1.40515e-17,0,0.319833
3.5e-08,1.45613e-17,0,0.329203
3.6e-08,1.50788e-17,0,0.338569
3.7e-08,1.56041e-17,0,0.347932
3.8e-08,1.61374e-17,0,0.357291
3.9e-08,1.6679e-17,0,0.366647
4e-08,1.72291e-17,0,0.376
4.1e-08,1.77878e-17,0,0.385348
4.2e-08,1.83554e-17,0,0.394693
4.3e-08,1.89321e-17,0,0.404034
4.4e-08,1.95182e-17,0,0.413371
4.5e-08,2.01138e-17,0,0.422704
4.6e-08,2.07191e-17,0,0.432032
4.7e-08,2.13345e-17,0,0.441357
4.8e-08,2.196e-17,0,0.450677
4.9e-08,2.25959e-17,0,0.459992
5e-08,2.32425e-17,0,0.469303
5.1e-08,2.38999e-17,0,0.47861
5.2e-08,2.45684e-17,0,0.487911
5.3e-08,2.52481e-17,0,0.497208
5.4e-08,2.59392e-17,0,0.5065
5.5e-08,2.6642e-17,0,0.515787
5.6e-08,2.73566e-17,0,0.525069
5.7e-08,2.80833e-17,0,0.534346
5.8e-08,2.88221e-17,0,0.543617
5.9e-08,2.95733e-17,0,0.552883
6e-08,3.03371e-17,0,0.562144
6.1e-08,3.11135e-17,0,0.571399
6.2e-08,3.19028e-17,0,0.580648
6.3e-08,3.27051e-17,0,0.589892
6.4e-08,3.35204e-17,0,0.59913
6.5e-08,3.43489e-17,0,0.608362
6.6e-08,3.51908e-17,0,0.617588
6.7e-08,3.6046e-17,0,0.626808
6.8e-08,3.69147e-17,0,0.636021
6.9e-08,3.77969e-17,0,0.645229
7e-08,3.86926e-17,0,0.65443
7.1e-08,3.96019e-17,0,0.663624
7.2e-08,4.05248e-17,0,0.672812
7.3e-08,4.14612e-17,0,0.681994
7.4e-08,4.24112e-17,0,0.691168
7.5e-08,4.33746e-17,0,0.700336
7.6e-08,4.43514e-17,0,0.709497
7.7e-08,4.53415e-17,0,0.718651
7.8e-08,4.63448e-17,0,0.727798
7.9e-08,4.73612e-17,0,0.736937
8e-08,4.83905e-17,0,0.74607
8.1e-08,4.94324e-17,0,0.755195
8.2e-08,5.04869e-17,0,0.764312
8.3e-08,5.15536e-17,0,0.773422
8.4e-08,5.26323e-17,0,0.782524
8.5e-08,5.37228e-17,0,0.791619
8.6e-08,5.48247e-17,0,0.800706
8.7e-08,5.59377e-17,0,0.809785
8.8e-08,5.70614e-17,0,0.818856
8.9e-08,5.81956e-17,0,0.827919
9e-08,5.93398e-17,0,0.836973
9.1e-08,6.04935e-17,0,0.84602
9.2e-08,6.16564e-17,0,0.855058
9.3e-08,6.2828e-17,0,0.864087
9.4e-08,6.40077e-17,0,0.873108
9.5e-08,6.51952e-17,0,0.882121
9.6e-08,6.63899e-17,0,0.891125
9.7e-08,6.75913e-17,0,0.90012
9.8e-08,6.87987e-17,0,0.909106
9.9e-08,7.00118e-17,0,0.918083
1e-07,7.12298e-17,0,0.927051
1.01e-07,7.24522e-17,0,0.93601
1.02e-07,7.36783e-17,0,0.944959
1.03e-07,7.49077e-17,0,0.9539
1.04e-07,7.61396e-17,0,0.962831
1.05e-07,7.73735e-17,0,0.971752
1.06e-07,7.86087e-17,0,0.980664
1.07e-07,7.98446e-17,0,0.989566
1.08e-07,8.10805e-17,0,0.998459
1.09e-07,8.23159e-17,0,1.00734
1.1e-07,8.35501e-17,0,1.01621
1.11e-07,8.47824e-17,0,1.02508
1.12e-07,8.60123e-17,0,1.03393
1.13e-07,8.72392e-17,0,1.04277
1.14e-07,8.84623e-17,0,1.0516
1.15e-07,8.96813e-17,0,1.06042
1.16e-07,9.08954e-17,0,1.06924
1.17e-07,9.21041e-17,0,1.07804
1.18e-07,9.33068e-17,0,1.08683
1.19e-07,9.45031e-17,0,1.0956
1.2e-07,9.56923e-17,0,1.10437
1.21e-07,9.6874e-17,0,1.11313
1.22e-07,9.80476e-17,0,1.12188
1.23e-07,9.92128e-17,0,1.13061
1.24e-07,1.00369e-16,0,1.13934
1.25e-07,1.01516e-16,0,1.14805
1.26e-07,1.02653e-16,0,1.15675
1.27e-07,1.0378e-16,0,1.16544
1.28e-07,1.04896e-16,0,1.17412
1.29e-07,1.06001e-16,0,1.18279
1.3e-07,1.07096e-16,0,1.19144
1.31e-07,1.08178e-16,0,1.20009
1.32e-07,1.09249e-16,0,1.20872
1.33e-07,1.10308e-16,0,1.21734
1.34e-07,1.11355e-16,0,1.22595
1.35e-07,1.12389e-16,0,1.23454
1.36e-07,1.1341e-16,0,1.24313
1.37e-07,1.14419e-16,0,1.2517
1.38e-07,1.15415e-16,0,1.26026
1.39e-07,1.16397e-16,0,1.2688
1.4e-07,1.17367e-16,0,1.27734
1.41e-07,1.18323e-16,0,1.28586
1.42e-07,1.19266e-16,0,1.29437
1.43e-07,1.20195e-16,0,1.30286
1.44e-07,1.21111e-16,0,1.31135
1.45e-07,1.22013e-16,0,1.31982
1.46e-07,1.22902e-16,0,1.32827
1.47e-07,1.23778e-16,0,1.33672
1.48e-07,1.2464e-16,0,1.34515
1.49e-07,1.25489e-16,0,1.35357
1.5e-07,1.26325e-16,0,1.36197
1.51e-07,1.27147e-16,0,1.37036
1.52e-07,1.27957e-16,0,1.37874
1.53e-07,1.28753e-16,0,1.3871
1.54e-07,1.29536e-16,0,1.39545
1.55e-07,1.30307e-16,0,1.40379
1.56e-07,1.31065e-16,0,1.41211
1.57e-07,1.31811e-16,0,1.42042
1.58e-07,1.32544e-16,0,1.42871
1.59e-07,1.33265e-16,0,1.437
1.6e-07,1.33974e-16,0,1.44526
1.61e-07,1.34672e-16,0,1.45351
1.62e-07,1.35357e-16,0,1.46175
1.63e-07,1.36031e-16,0,1.46997
1.64e-07,1.36694e-16,0,1.47818
1.65e-07,1.37345e-16,0,1.48638
1.66e-07,1.37986e-16,0,1.49456
1.67e-07,1.38615e-16,0,1.50272
1.68e-07,1.39234e-16,0,1.51087
1.69e-07,1.39843e-16,0,1.519
1.7e-07,1.40442e-16,0,1.52712
1.71e-07,1.4103e-16,0,1.53523
1.72e-07,1.41609e-16,0,1.54332
1.73e-07,1.42178e-16,0,1.55139
1.74e-07,1.42737e-16,0,1.55945
1.75e-07,1.43288e-16,0,1.5675
1.76e-07,1.43829e-16,0,1.57552
1.77e-07,1.44361e-16,0,1.58354
1.78e-07,1.44885e-16,0,1.59153
1.79e-07,1.454e-16,0,1.59952
1.8e-07,1.45907e-16,0,1.60748
1.81e-07,1.46406e-16,0,1.61543
1.82e-07,1.46897e-16,0,1.62336
1.83e-07,1.4738e-16,0,1.63128
1.84e-07,1.47856e-16,0,1.63918
1.85e-07,1.48324e-16,0,1.64707
1.86e-07,1.48785e-16,0,1.65494
1.87e-07,1.49239e-16,0,1.66279
1.88e-07,1.49686e-16,0,1.67063
1.89e-07,1.50126e-16,0,1.67845
1.9e-07,1.5056e-16,0,1.68625
1.91e-07,1.50987e-16,0,1.69404
1.92e-07,1.51409e-16,0,1.70181
1.93e-07,1.51824e-16,0,1.70956
1.94e-07,1.52233e-16,0,1.7173
1.95e-07,1.52636e-16,0,1.72501
1.96e-07,1.53034e-16,0,1.73272
1.97e-07,1.53426e-16,0,1.7404
1.98e-07,1.53813e-16,0,1.74807
1.99e-07,1.54194e-16,0,1.75572
2e-07,1.54571e-16,0,1.76336
2.01e-07,1.54942e-16,0,1.77097
2.02e-07,1.55309e-16,0,1.77857
2.03e-07,1.55671e-16,0,1.78615
2.04e-07,1.56028e-16,0,1.79371
2.05e-07,1.56381e-16,0,1.80126
2.06e-07,1.56729e-16,0,1.80879
2.07e-07,1.57073e-16,0,1.8163
2.08e-07,1.57413e-16,0,1.82379
2.09e-07,1.57749e-16,0,1.83126
2.1e-07,1.58081e-16,0,1.83872
2.11e-07,1.58409e-16,0,1.84616
2.12e-07,1.58733e-16,0,1.85358
2.13e-07,1.59054e-16,0,1.86098
2.14e-07,1.59371e-16,0,1.86836
2.15e-07,1.59684e-16,0,1.87573
2.16e-07,1.59994e-16,0,1.88307
2.17e-07,1.60301e-16,0,1.8904
2.18e-07,1.60605e-16,0,1.89771
2.19e-07,1.60905e-16,0,1.905
2.2e-07,1.61202e-16,0,1.91227
2.21e-07,1.61497e-16,0,1.91952
2.22e-07,1.61788e-16,0,1.92676
2.23e-07,1.62076e-16,0,1.93397
2.24e-07,1.62362e-16,0,1.94117
2.25e-07,1.62645e-16,0,1.94834
2.26e-07,1.62925e-16,0,1.9555
2.27e-07,1.63203e-16,0,1.96264
2.28e-07,1.63478e-16,0,1.96976
2.29e-07,1.6375e-16,0,1.97686
2.3e-07,1.6402e-16,0,1.98394
2.31e-07,1.64288e-16,0,1.991
2.32e-07,1.64553e-16,0,1.99804
2.33e-07,1.64816e-16,0,2.00506
2.34e-07,1.65077e-16,0,2.01206
2.35e-07,1.65336e-16,0,2.01904
2.36e-07,1.65592e-16,0,2.026
2.37e-07,1.65847e-16,0,2.03294
2.38e-07,1.66099e-16,0,2.03986
2.39e-07,1.6635e-16,0,2.04676
2.4e-07,1.66598e-16,0,2.05364
2.41e-07,1.66844e-16,0,2.0605
2.42e-07,1.67089e-16,0,2.06734
2.43e-07,1.67332e-16,0,2.07416
2.44e-07,1.67573e-16,0,2.08096
2.45e-07,1.67812e-16,0,2.08774
2.46e-07,1.68049e-16,0,2.0945
2.47e-07,1.68285e-16,0,2.10123
2.48e-07,1.68519e-16,0,2.10795
2.49e-07,1.68751e-16,0,2.11464
2.5e-07,1.68982e-16,0,2.12132
2.51e-07,1.69211e-16,0,2.12797
2.52e-07,1.69438e-16,0,2.13461
2.53e-07,1.69665e-16,0,2.14122
2.54e-07,1.69889e-16,0,2.14781
2.55e-07,1.70112e-16,0,2.15438
2.56e-07,1.70334e-16,0,2.16093
2.57e-07,1.70554e-16,0,2.16745
2.58e-07,1.70772e-16,0,2.17396
2.59e-07,1.7099e-16,0,2.18044
2.6e-07,1.71205e-16,0,2.1869
2.61e-07,1.7142e-16,0,2.19335
2.62e-07,1.71633e-16,0,2.19977
2.63e-07,1.71845e-16,0,2.20616
2.64e-07,1.72056e-16,0,2.21254
2.65e-07,1.72265e-16,0,2.21889
2.66e-07,1.72473e-16,0,2.22523
2.67e-07,1.7268e-16,0,2.23154
2.68e-07,1.72885e-16,0,2.23782
2.69e-07,1.7309e-16,0,2.24409
2.7e-07,1.73293e-16,0,2.25033
2.71e-07,1.73495e-16,0,2.25655
2.72e-07,1.73696e-16,0,2.26275
2.73e-07,1.73895e-16,0,2.26893
2.74e-07,1.74094e-16,0,2.27508
2.75e-07,1.74291e-16,0,2.28122
2.76e-07,1.74487e-16,0,2.28733
2.77e-07,1.74683e-16,0,2.29341
2.78e-07,1.74877e-16,0,2.29948
2.79e-07,1.75069e-16,0,2.30552
2.8e-07,1.75261e-16,0,2.31154
2.81e-07,1.75452e-16,0,2.31753
2.82e-07,1.75642e-16,0,2.32351
2.83e-07,1.75831e-16,0,2.32946
2.84e-07,1.76018e-16,0,2.33539
2.85e-07,1.76205e-16,0,2.34129
2.86e-07,1.76391e-16,0,2.34717
2.87e-07,1.76575e-16,0,2.35303
2.88e-07,1.76759e-16,0,2.35887
2.89e-07,1.76941e-16,0,2.36468
2.9e-07,1.77123e-16,0,2.37046
2.91e-07,1.77304e-16,0,2.37623
2.92e-07,1.77483e-16,0,2.38197
2.93e-07,1.77662e-16,0,2.38769
2.94e-07,1.7784e-16,0,2.39338
2.95e-07,1.78016e-16,0,2.39905
2.96e-07,1.78192e-16,0,2.4047
2.97e-07,1.78367e-16,0,2.41032
2.98e-07,1.78541e-16,0,2.41592
2.99e-07,1.78714e-16,0,2.4215
3e-07,1.78886e-16,0,2.42705
3.01e-07,1.79057e-16,0,2.43257
3.02e-07,1.79227e-16,0,2.43808
3.03e-07,1.79397e-16,0,2.44356
3.04e-07,1.79565e-16,0,2.44901
3.05e-07,1.79732e-16,0,2.45445
3.06e-07,1.79899e-16,0,2.45985
3.07e-07,1.80065e-16,0,2.46523
3.08e-07,1.80229e-16,0,2.47059
3.09e-07,1.80393e-16,0,2.47593
3.1e-07,1.80556e-16,0,2.48124
3.11e-07,1.80718e-16,0,2.48652
3.12e-07,1.8088e-16,0,2.49178
3.13e-07,1.8104e-16,0,2.49702
3.14e-07,1.81199e-16,0,2.50223
3.15e-07,1.81358e-16,0,2.50742
3.16e-07,1.81518e-16,0,2.51258
3.17e-07,1.81681e-16,0,2.51772
3.18e-07,1.81842e-16,0,2.52283
3.19e-07,1.82002e-16,0,2.52792
3.2e-07,1.82161e-16,0,2.53298
3.21e-07,1.82319e-16,0,2.53802
3.22e-07,1.82476e-16,0,2.54303
3.23e-07,1.82632e-16,0,2.54802
3.24e-07,1.82788e-16,0,2.55298
3.25e-07,1.82942e-16,0,2.55792
3.26e-07,1.83095e-16,0,2.56283
3.27e-07,1.83248e-16,0,2.56772
3.28e-07,1.83399e-16,0,2.57258
3.29e-07,1.8355e-16,0,2.57741
3.3e-07,1.83699e-16,0,2.58222
3.31e-07,1.83848e-16,0,2.58701
3.32e-07,1.83995e-16,0,2.59177
3.33e-07,1.84142e-16,0,2.5965
3.34e-07,1.84288e-16,0,2.60121
3.35e-07,1.84433e-16,0,2.60589
3.36e-07,1.84577e-16,0,2.61055
3.37e-07,1.8472e-16,0,2.61518
3.38e-07,1.84862e-16,0,2.61978
3.39e-07,1.85003e-16,0,2.62436
3.4e-07,1.85143e-16,0,2.62892
3.41e-07,1.85283e-16,0,2.63344
3.42e-07,1.85421e-16,0,2.63795
3.43e-07,1.85559e-16,0,2.64242
3.44e-07,1.85695e-16,0,2.64687
3.45e-07,1.85831e-16,0,2.65129
3.46e-07,1.85966e-16,0,2.65569
3.47e-07,1.861e-16,0,2.66006
3.48e-07,1.86233e-16,0,2.6644
3.49e-07,1.86365e-16,0,2.66872
3.5e-07,1.86497e-16,0,2.67301
3.51e-07,1.86627e-16,0,2.67728
3.52e-07,1.86756e-16,0,2.68152
3.53e-07,1.86885e-16,0,2.68573
3.54e-07,1.87013e-16,0,2.68992
3.55e-07,1.8714e-16,0,2.69408
3.56e-07,1.87266e-16,0,2.69821
3.57e-07,1.87391e-16,0,2.70232
3.58e-07,1.87515e-16,0,2.7064
3.59e-07,1.87639e-16,0,2.71045
3.6e-07,1.87761e-16,0,2.71448
3.61e-07,1.87883e-16,0,2.71848
3.62e-07,1.88003e-16,0,2.72245
3.63e-07,1.88123e-16,0,2.7264
3.64e-07,1.88242e-16,0,2.73031
3.65e-07,1.8836e-16,0,2.73421
3.66e-07,1.88477e-16,0,2.73807
3.67e-07,1.88594e-16,0,2.74191
3.68e-07,1.88709e-16,0,2.74572
3.69e-07,1.88824e-16,0,2.7495
3.7e-07,1.88938e-16,0,2.75326
3.71e-07,1.89051e-16,0,2.75699
3.72e-07,1.89163e-16,0,2.76069
3.73e-07,1.89274e-16,0,2.76437
3.74e-07,1.89384e-16,0,2.76801
3.75e-07,1.89494e-16,0,2.77163
3.76e-07,1.89602e-16,0,2.77523
3.77e-07,1.8971e-16,0,2.77879
3.78e-07,1.89817e-16,0,2.78233
3.79e-07,1.89923e-16,0,2.78584
3.8e-07,1.90028e-16,0,2.78932
3.81e-07,1.90132e-16,0,2.79278
3.82e-07,1.90235e-16,0,2.79621
3.83e-07,1.90338e-16,0,2.79961
3.84e-07,1.9044e-16,0,2.80298
3.85e-07,1.9054e-16,0,2.80633
3.86e-07,1.9064e-16,0,2.80965
3.87e-07,1.90739e-16,0,2.81293
3.88e-07,1.90837e-16,0,2.8162
3.89e-07,1.90935e-16,0,2.81943
3.9e-07,1.91031e-16,0,2.82264
3.91e-07,1.91127e-16,0,2.82582
3.92e-07,1.91222e-16,0,2.82897
3.93e-07,1.91316e-16,0,2.83209
3.94e-07,1.91409e-16,0,2.83519
3.95e-07,1.91501e-16,0,2.83825
3.96e-07,1.91592e-16,0,2.84129
3.97e-07,1.91683e-16,0,2.8443
3.98e-07,1.91772e-16,0,2.84728
3.99e-07,1.91861e-16,0,2.85024
4e-07,1.91949e-16,0,2.85317
4.01e-07,1.92036e-16,0,2.85606
4.02e-07,1.92122e-16,0,2.85893
4.03e-07,1.92207e-16,0,2.86178
4.04e-07,1.92291e-16,0,2.86459
4.05e-07,1.92375e-16,0,2.86737
4.06e-07,1.92458e-16,0,2.87013
4.07e-07,1.92539e-16,0,2.87286
4.08e-07,1.9262e-16,0,2.87556
4.09e-07,1.927e-16,0,2.87823
4.1e-07,1.92779e-16,0,2.88088
4.11e-07,1.92858e-16,0,2.88349
4.12e-07,1.92935e-16,0,2.88608
4.13e-07,1.93012e-16,0,2.88864
4.14e-07,1.93088e-16,0,2.89117
4.15e-07,1.93163e-16,0,2.89367
4.16e-07,1.93236e-16,0,2.89614
4.17e-07,1.9331e-16,0,2.89858
4.18e-07,1.93382e-16,0,2.901
4.19e-07,1.93453e-16,0,2.90339
4.2e-07,1.93524e-16,0,2.90575
4.21e-07,1.93593e-16,0,2.90807
4.22e-07,1.93662e-16,0,2.91038
4.23e-07,1.9373e-16,0,2.91265
4.24e-07,1.93797e-16,0,2.91489
4.25e-07,1.93863e-16,0,2.9171
4.26e-07,1.93929e-16,0,2.91929
4.27e-07,1.93993e-16,0,2.92145
4.28e-07,1.94057e-16,0,2.92358
4.29e-07,1.9412e-16,0,2.92568
4.3e-07,1.94182e-16,0,2.92774
4.31e-07,1.94242e-16,0,2.92979
4.32e-07,1.94303e-16,0,2.9318
4.33e-07,1.94362e-16,0,2.93378
4.34e-07,1.9442e-16,0,2.93574
4.35e-07,1.94478e-16,0,2.93766
4.36e-07,1.94534e-16,0,2.93956
4.37e-07,1.9459e-16,0,2.94143
4.38e-07,1.94645e-16,0,2.94327
4.39e-07,1.94699e-16,0,2.94508
4.4e-07,1.94752e-16,0,2.94686
4.41e-07,1.94804e-16,0,2.94861
4.42e-07,1.94856e-16,0,2.95033
4.43e-07,1.94906e-16,0,2.95202
4.44e-07,1.94956e-16,0,2.95369
4.45e-07,1.95005e-16,0,2.95532
4.46e-07,1.95053e-16,0,2.95693
4.47e-07,1.951e-16,0,2.95851
4.48e-07,1.95146e-16,0,2.96005
4.49e-07,1.95191e-16,0,2.96157
4.5e-07,1.95235e-16,0,2.96306
4.51e-07,1.95279e-16,0,2.96452
4.52e-07,1.95322e-16,0,2.96595
4.53e-07,1.95363e-16,0,2.96735
4.54e-07,1.95404e-16,0,2.96872
4.55e-07,1.95444e-16,0,2.97007
4.56e-07,1.95484e-16,0,2.97138
4.57e-07,1.95522e-16,0,2.97266
4.58e-07,1.95559e-16,0,2.97392
4.59e-07,1.95596e-16,0,2.97514
4.6e-07,1.95631e-16,0,2.97634
4.61e-07,1.95666e-16,0,2.97751
4.62e-07,1.957e-16,0,2.97864
4.63e-07,1.95733e-16,0,2.97975
4.64e-07,1.95765e-16,0,2.98083
4.65e-07,1.95796e-16,0,2.98188
4.66e-07,1.95827e-16,0,2.9829
4.67e-07,1.95856e-16,0,2.98389
4.68e-07,1.95885e-16,0,2.98485
4.69e-07,1.95913e-16,0,2.98578
4.7e-07,1.9594e-16,0,2.98668
4.71e-07,1.95965e-16,0,2.98755
4.72e-07,1.9599e-16,0,2.9884
4.73e-07,1.96015e-16,0,2.98921
4.74e-07,1.96038e-16,0,2.98999
4.75e-07,1.96061e-16,0,2.99075
4.76e-07,1.96082e-16,0,2.99147
4.77e-07,1.96103e-16,0,2.99217
4.78e-07,1.96123e-16,0,2.99283
4.79e-07,1.96142e-16,0,2.99347
4.8e-07,1.9616e-16,0,2.99408
4.81e-07,1.96177e-16,0,2.99465
4.82e-07,1.96193e-16,0,2.9952
4.83e-07,1.96209e-16,0,2.99572
4.84e-07,1.96223e-16,0,2.99621
4.85e-07,1.96237e-16,0,2.99666
4.86e-07,1.9625e-16,0,2.99709
4.87e-07,1.96262e-16,0,2.99749
4.88e-07,1.96273e-16,0,2.99786
4.89e-07,1.96283e-16,0,2.9982
4.9e-07,1.96292e-16,0,2.99851
4.91e-07,1.963e-16,0,2.9988
4.92e-07,1.96308e-16,0,2.99905
4.93e-07,1.96314e-16,0,2.99927
4.94e-07,1.9632e-16,0,2.99946
4.95e-07,1.96325e-16,0,2.99962
4.96e-07,1.96329e-16,0,2.99976
4.97e-07,1.96332e-16,0,2.99986
4.98e-07,1.96334e-16,0,2.99994
4.99e-07,1.96335e-16,0,2.99998
5e-07,1.96411e-16,0,3
5.01e-07,1.96411e-16,0,2.99998
5.02e-07,1.9641e-16,0,2.99994
5.03e-07,1.96407e-16,0,2.99986
5.04e-07,1.96404e-16,0,2.99976
5.05e-07,1.964e-16,0,2.99962
5.06e-07,1.96396e-16,0,2.99946
5.07e-07,1.9639e-16,0,2.99927
5.08e-07,1.96383e-16,0,2.99905
5.09e-07,1.96376e-16,0,2.9988
5.1e-07,1.96368e-16,0,2.99851
5.11e-07,1.96358e-16,0,2.9982
5.12e-07,1.96348e-16,0,2.99786
5.13e-07,1.96338e-16,0,2.99749
5.14e-07,1.96326e-16,0,2.99709
5.15e-07,1.96313e-16,0,2.99666
5.16e-07,1.963e-16,0,2.99621
5.17e-07,1.96285e-16,0,2.99572
5.18e-07,1.9627e-16,0,2.9952
5.19e-07,1.96254e-16,0,2.99465
5.2e-07,1.96237e-16,0,2.99408
5.21e-07,1.96219e-16,0,2.99347
5.22e-07,1.962e-16,0,2.99283
5.23e-07,1.96181e-16,0,2.99217
5.24e-07,1.9616e-16,0,2.99147
5.25e-07,1.96139e-16,0,2.99075
5.26e-07,1.96117e-16,0,2.98999
5.27e-07,1.96094e-16,0,2.98921
5.28e-07,1.96069e-16,0,2.9884
5.29e-07,1.96045e-16,0,2.98755
5.3e-07,1.96019e-16,0,2.98668
5.31e-07,1.95992e-16,0,2.98578
5.32e-07,1.95965e-16,0,2.98485
5.33e-07,1.95937e-16,0,2.98389
5.34e-07,1.95907e-16,0,2.9829
5.35e-07,1.95877e-16,0,2.98188
5.36e-07,1.95847e-16,0,2.98083
5.37e-07,1.95815e-16,0,2.97975
5.38e-07,1.95782e-16,0,2.97864
5.39e-07,1.95748e-16,0,2.9775
5.4e-07,1.95714e-16,0,2.97634
5.41e-07,1.95679e-16,0,2.97514
5.42e-07,1.95643e-16,0,2.97392
5.43e-07,1.95606e-16,0,2.97266
5.44e-07,1.95568e-16,0,2.97138
5.45e-07,1.95529e-16,0,2.97007
5.46e-07,1.9549e-16,0,2.96872
5.47e-07,1.95449e-16,0,2.96735
5.48e-07,1.95408e-16,0,2.96595
5.49e-07,1.95366e-16,0,2.96452
5.5e-07,1.95323e-16,0,2.96306
5.51e-07,1.95279e-16,0,2.96157
5.52e-07,1.95234e-16,0,2.96005
5.53e-07,1.95189e-16,0,2.95851
5.54e-07,1.95142e-16,0,2.95693
5.55e-07,1.95095e-16,0,2.95532
5.56e-07,1.95047e-16,0,2.95369
5.57e-07,1.94998e-16,0,2.95202
5.58e-07,1.94948e-16,0,2.95033
5.59e-07,1.94897e-16,0,2.94861
5.6e-07,1.94845e-16,0,2.94686
5.61e-07,1.94793e-16,0,2.94508
5.62e-07,1.9474e-16,0,2.94327
5.63e-07,1.94685e-16,0,2.94143
5.64e-07,1.9463e-16,0,2.93956
5.65e-07,1.94574e-16,0,2.93766
5.66e-07,1.94518e-16,0,2.93574
5.67e-07,1.9446e-16,0,2.93378
5.68e-07,1.94402e-16,0,2.9318
5.69e-07,1.94342e-16,0,2.92979
5.7e-07,1.94282e-16,0,2.92774
5.71e-07,1.94221e-16,0,2.92568
5.72e-07,1.94159e-16,0,2.92358
5.73e-07,1.94097e-16,0,2.92145
5.74e-07,1.94033e-16,0,2.91929
5.75e-07,1.93968e-16,0,2.9171
5.76e-07,1.93903e-16,0,2.91489
5.77e-07,1.93837e-16,0,2.91265
5.78e-07,1.9377e-16,0,2.91038
5.79e-07,1.93702e-16,0,2.90807
5.8e-07,1.93634e-16,0,2.90574
5.81e-07,1.93564e-16,0,2.90339
5.82e-07,1.93494e-16,0,2.901
5.83e-07,1.93423e-16,0,2.89858
5.84e-07,1.93351e-16,0,2.89614
5.85e-07,1.93278e-16,0,2.89367
5.86e-07,1.93204e-16,0,2.89117
5.87e-07,1.9313e-16,0,2.88864
5.88e-07,1.93054e-16,0,2.88608
5.89e-07,1.92978e-16,0,2.88349
5.9e-07,1.92901e-16,0,2.88088
5.91e-07,1.92823e-16,0,2.87823
5.92e-07,1.92744e-16,0,2.87556
5.93e-07,1.92665e-16,0,2.87286
5.94e-07,1.92584e-16,0,2.87013
5.95e-07,1.92503e-16,0,2.86737
5.96e-07,1.92421e-16,0,2.86459
5.97e-07,1.92338e-16,0,2.86178
5.98e-07,1.92254e-16,0,2.85893
5.99e-07,1.9217e-16,0,2.85606
6e-07,1.92084e-16,0,2.85316
6.01e-07,1.91998e-16,0,2.85024
6.02e-07,1.91911e-16,0,2.84728
6.03e-07,1.91823e-16,0,2.8443
6.04e-07,1.91734e-16,0,2.84129
6.05e-07,1.91645e-16,0,2.83825
6.06e-07,1.91554e-16,0,2.83518
6.07e-07,1.91463e-16,0,2.83209
6.08e-07,1.91371e-16,0,2.82897
6.09e-07,1.91278e-16,0,2.82582
6.1e-07,1.91185e-16,0,2.82264
6.11e-07,1.9109e-16,0,2.81943
6.12e-07,1.90995e-16,0,2.8162
6.13e-07,1.90899e-16,0,2.81293
6.14e-07,1.90802e-16,0,2.80964
6.15e-07,1.90704e-16,0,2.80633
6.16e-07,1.90605e-16,0,2.80298
6.17e-07,1.90506e-16,0,2.79961
6.18e-07,1.90406e-16,0,2.79621
6.19e-07,1.90305e-16,0,2.79278
6.2e-07,1.90203e-16,0,2.78932
6.21e-07,1.901e-16,0,2.78584
6.22e-07,1.89997e-16,0,2.78233
6.23e-07,1.89892e-16,0,2.77879
6.24e-07,1.89787e-16,0,2.77523
6.25e-07,1.89681e-16,0,2.77163
6.26e-07,1.89575e-16,0,2.76801
6.27e-07,1.89467e-16,0,2.76437
6.28e-07,1.89359e-16,0,2.76069
6.29e-07,1.8925e-16,0,2.75699
6.3e-07,1.8914e-16,0,2.75326
6.31e-07,1.89029e-16,0,2.7495
6.32e-07,1.88918e-16,0,2.74572
6.33e-07,1.88805e-16,0,2.74191
6.34e-07,1.88692e-16,0,2.73807
6.35e-07,1.88578e-16,0,2.73421
6.36e-07,1.88464e-16,0,2.73031
6.37e-07,1.88348e-16,0,2.72639
6.38e-07,1.88232e-16,0,2.72245
6.39e-07,1.88115e-16,0,2.71848
6.4e-07,1.87997e-16,0,2.71448
6.41e-07,1.87878e-16,0,2.71045
6.42e-07,1.87759e-16,0,2.7064
6.43e-07,1.87639e-16,0,2.70232
6.44e-07,1.87517e-16,0,2.69821
6.45e-07,1.87396e-16,0,2.69408
6.46e-07,1.87273e-16,0,2.68992
6.47e-07,1.8715e-16,0,2.68573
6.48e-07,1.87026e-16,0,2.68152
6.49e-07,1.86901e-16,0,2.67728
6.5e-07,1.86775e-16,0,2.67301
6.51e-07,1.86649e-16,0,2.66872
